  time (s)              T(t) (K)              P(t) (Pa)           Kinetic En. (n.u.)     Potential En. (n.u.) Total En. (n.u.)
  0.000000000000e+00  9.982304615713e+01  0.000000000000e+00 2.276129839538e+03  -2.117098715572e+04  -1.889485731619e+04 
  5.000000000000e-15  9.943006643399e+01  0.000000000000e+00 2.267169254697e+03  -2.115306528702e+04  -1.888589603233e+04 
  1.000000000000e-14  9.877588379507e+01  0.000000000000e+00 2.252252813231e+03  -2.112322989994e+04  -1.887097708670e+04 
  1.500000000000e-14  9.786274191123e+01  0.000000000000e+00 2.231431674530e+03  -2.108158269291e+04  -1.885015101838e+04 
  2.000000000000e-14  9.669420691884e+01  0.000000000000e+00 2.204787152377e+03  -2.102828541040e+04  -1.882349825802e+04 
  2.500000000000e-14  9.527544708184e+01  0.000000000000e+00 2.172437091700e+03  -2.096357259504e+04  -1.879113550334e+04 
  3.000000000000e-14  9.361359318303e+01  0.000000000000e+00 2.134544086090e+03  -2.088776803066e+04  -1.875322394457e+04 
  3.500000000000e-14  9.171817530774e+01  0.000000000000e+00 2.091325437187e+03  -2.080130468651e+04  -1.870997924932e+04 
  4.000000000000e-14  8.960162562583e+01  0.000000000000e+00 2.043064618936e+03  -2.070474769972e+04  -1.866168308078e+04 
  4.500000000000e-14  8.727982723711e+01  0.000000000000e+00 1.990123792169e+03  -2.059881950056e+04  -1.860869570839e+04 
  5.000000000000e-14  8.477267539477e+01  0.000000000000e+00 1.932956601422e+03  -2.048442555900e+04  -1.855146895757e+04 
  5.500000000000e-14  8.210459940063e+01  0.000000000000e+00 1.872120075006e+03  -2.036267840537e+04  -1.849055833037e+04 
  6.000000000000e-14  7.930497260185e+01  0.000000000000e+00 1.808283973609e+03  -2.023491661524e+04  -1.842663264163e+04 
  6.500000000000e-14  7.640831815072e+01  0.000000000000e+00 1.742235481955e+03  -2.010271452449e+04  -1.836047904253e+04 
  7.000000000000e-14  7.345420663837e+01  0.000000000000e+00 1.674876874685e+03  -1.996787788271e+04  -1.829300100803e+04 
  7.500000000000e-14  7.048674793610e+01  0.000000000000e+00 1.607213929505e+03  -1.983242090609e+04  -1.822520697659e+04 
  8.000000000000e-14  6.755361228181e+01  0.000000000000e+00 1.540333606341e+03  -1.969852167178e+04  -1.815818806544e+04 
  8.500000000000e-14  6.470457697648e+01  0.000000000000e+00 1.475370909629e+03  -1.956845562174e+04  -1.809308471211e+04 
  9.000000000000e-14  6.198967522927e+01  0.000000000000e+00 1.413466678932e+03  -1.944451067120e+04  -1.803104399227e+04 
  9.500000000000e-14  5.945710103963e+01  0.000000000000e+00 1.355719816801e+03  -1.932889102913e+04  -1.797317121232e+04 
  1.000000000000e-13  5.715107350053e+01  0.000000000000e+00 1.303138591377e+03  -1.922361914723e+04  -1.792048055585e+04 
  1.050000000000e-13  5.510987045553e+01  0.000000000000e+00 1.256595800527e+03  -1.913044550126e+04  -1.787384970073e+04 
  1.100000000000e-13  5.336420805429e+01  0.000000000000e+00 1.216791823047e+03  -1.905077432635e+04  -1.783398250330e+04 
  1.150000000000e-13  5.193608654762e+01  0.000000000000e+00 1.184228300885e+03  -1.898561080155e+04  -1.780138250067e+04 
  1.200000000000e-13  5.083816249853e+01  0.000000000000e+00 1.159193824520e+03  -1.893553240251e+04  -1.777633857799e+04 
  1.250000000000e-13  5.007365433045e+01  0.000000000000e+00 1.141761779307e+03  -1.890068470834e+04  -1.775892292904e+04 
  1.300000000000e-13  4.963674418424e+01  0.000000000000e+00 1.131799508476e+03  -1.888079994910e+04  -1.774900044063e+04 
  1.350000000000e-13  4.951340384257e+01  0.000000000000e+00 1.128987145571e+03  -1.887523497115e+04  -1.774624782558e+04 
  1.400000000000e-13  4.968254684056e+01  0.000000000000e+00 1.132843884468e+03  -1.888302411988e+04  -1.775018023541e+04 
  1.450000000000e-13  5.011739509244e+01  0.000000000000e+00 1.142759140712e+03  -1.890294190532e+04  -1.776018276460e+04 
  1.500000000000e-13  5.078694777644e+01  0.000000000000e+00 1.158026044517e+03  -1.893357029332e+04  -1.777554424880e+04 
  1.550000000000e-13  5.165745157160e+01  0.000000000000e+00 1.177874964580e+03  -1.897336599524e+04  -1.779549103066e+04 
  1.600000000000e-13  5.269379096983e+01  0.000000000000e+00 1.201505209488e+03  -1.902072403904e+04  -1.781921882955e+04 
  1.650000000000e-13  5.386074066426e+01  0.000000000000e+00 1.228113584237e+03  -1.907403497971e+04  -1.784592139547e+04 
  1.700000000000e-13  5.512404481825e+01  0.000000000000e+00 1.256918999339e+03  -1.913173415506e+04  -1.787481515572e+04 
  1.750000000000e-13  5.645130756646e+01  0.000000000000e+00 1.287182775716e+03  -1.919234228833e+04  -1.790515951261e+04 
  1.800000000000e-13  5.781269408484e+01  0.000000000000e+00 1.318224630247e+03  -1.925449742234e+04  -1.793627279209e+04 
  1.850000000000e-13  5.918145183919e+01  0.000000000000e+00 1.349434561096e+03  -1.931697863635e+04  -1.796754407525e+04 
  1.900000000000e-13  6.053426772126e+01  0.000000000000e+00 1.380280991005e+03  -1.937872227241e+04  -1.799844128141e+04 
  1.950000000000e-13  6.185147951909e+01  0.000000000000e+00 1.410315589161e+03  -1.943883151997e+04  -1.802851593081e+04 
  2.000000000000e-13  6.311716036788e+01  0.000000000000e+00 1.439175196819e+03  -1.949658021436e+04  -1.805740501754e+04 
  2.050000000000e-13  6.431909322878e+01  0.000000000000e+00 1.466581245373e+03  -1.955141163015e+04  -1.808483038477e+04 
  2.100000000000e-13  6.544864973006e+01  0.000000000000e+00 1.492336993739e+03  -1.960293292380e+04  -1.811059593006e+04 
  2.150000000000e-13  6.650058458875e+01  0.000000000000e+00 1.516322840829e+03  -1.965090573635e+04  -1.813458289552e+04 
  2.200000000000e-13  6.747275410937e+01  0.000000000000e+00 1.538489906854e+03  -1.969523333933e+04  -1.815674343248e+04 
  2.250000000000e-13  6.836576578724e+01  0.000000000000e+00 1.558852043708e+03  -1.973594463805e+04  -1.817709259434e+04 
  2.300000000000e-13  6.918256662811e+01  0.000000000000e+00 1.577476447975e+03  -1.977317537082e+04  -1.819569892284e+04 
  2.350000000000e-13  6.992798096557e+01  0.000000000000e+00 1.594473122407e+03  -1.980714698745e+04  -1.821267386504e+04 
  2.400000000000e-13  7.060821429679e+01  0.000000000000e+00 1.609983562557e+03  -1.983814395429e+04  -1.822816039173e+04 
  2.450000000000e-13  7.123034708996e+01  0.000000000000e+00 1.624169214761e+03  -1.986649057807e+04  -1.824232136331e+04 
  2.500000000000e-13  7.180184969553e+01  0.000000000000e+00 1.637200415310e+03  -1.989252877742e+04  -1.825532836211e+04 
  2.550000000000e-13  7.233015356679e+01  0.000000000000e+00 1.649246613578e+03  -1.991659842653e+04  -1.826735181295e+04 
  2.600000000000e-13  7.282231203246e+01  0.000000000000e+00 1.660468637075e+03  -1.993902181157e+04  -1.827855317449e+04 
  2.650000000000e-13  7.328477426311e+01  0.000000000000e+00 1.671013537510e+03  -1.996009329982e+04  -1.828907976231e+04 
  2.700000000000e-13  7.372327988851e+01  0.000000000000e+00 1.681012187894e+03  -1.998007457064e+04  -1.829906238274e+04 
  2.750000000000e-13  7.414286288995e+01  0.000000000000e+00 1.690579371290e+03  -1.999919488038e+04  -1.830861550909e+04 
  2.800000000000e-13  7.454793734344e+01  0.000000000000e+00 1.699815735900e+03  -2.001765508692e+04  -1.831783935102e+04 
  2.850000000000e-13  7.494242885007e+01  0.000000000000e+00 1.708810791894e+03  -2.003563375535e+04  -1.832682296346e+04 
  2.900000000000e-13  7.532991569070e+01  0.000000000000e+00 1.717646129968e+03  -2.005329368169e+04  -1.833564755173e+04 
  2.950000000000e-13  7.571375125419e+01  0.000000000000e+00 1.726398212911e+03  -2.007078752627e+04  -1.834438931336e+04 
  3.000000000000e-13  7.609715048077e+01  0.000000000000e+00 1.735140346653e+03  -2.008826177081e+04  -1.835312142416e+04 
  3.050000000000e-13  7.648323420448e+01  0.000000000000e+00 1.743943691351e+03  -2.010585872924e+04  -1.836191503789e+04 
  3.100000000000e-13  7.687503392727e+01  0.000000000000e+00 1.752877370241e+03  -2.012371673851e+04  -1.837083936827e+04 
  3.150000000000e-13  7.727546492270e+01  0.000000000000e+00 1.762007856360e+03  -2.014196889854e+04  -1.837996104217e+04 
  3.200000000000e-13  7.768727806597e+01  0.000000000000e+00 1.771397874195e+03  -2.016074084128e+04  -1.838934296708e+04 
  3.250000000000e-13  7.811300132510e+01  0.000000000000e+00 1.781105065578e+03  -2.018014803078e+04  -1.839904296520e+04 
  3.300000000000e-13  7.855488124956e+01  0.000000000000e+00 1.791180655537e+03  -2.020029306702e+04  -1.840911241149e+04 
  3.350000000000e-13  7.901483354429e+01  0.000000000000e+00 1.801668325300e+03  -2.022126340957e+04  -1.841959508427e+04 
  3.400000000000e-13  7.949441007076e+01  0.000000000000e+00 1.812603459863e+03  -2.024312985703e+04  -1.843052639716e+04 
  3.450000000000e-13  7.999478732204e+01  0.000000000000e+00 1.824012885206e+03  -2.026594601480e+04  -1.844193312959e+04 
  3.500000000000e-13  8.051677848861e+01  0.000000000000e+00 1.835915143412e+03  -2.028974884942e+04  -1.845383370601e+04 
  3.550000000000e-13  8.106086766530e+01  0.000000000000e+00 1.848321272639e+03  -2.031456026518e+04  -1.846623899254e+04 
  3.600000000000e-13  8.162726072325e+01  0.000000000000e+00 1.861235967088e+03  -2.034038945356e+04  -1.847915348647e+04 
  3.650000000000e-13  8.221594329139e+01  0.000000000000e+00 1.874658899075e+03  -2.036723557819e+04  -1.849257667912e+04 
  3.700000000000e-13  8.282673286094e+01  0.000000000000e+00 1.888585907101e+03  -2.039509019827e+04  -1.850650429117e+04 
  3.750000000000e-13  8.345931027440e+01  0.000000000000e+00 1.903009713847e+03  -2.042393874912e+04  -1.852092903527e+04 
  3.800000000000e-13  8.411321705992e+01  0.000000000000e+00 1.917919865401e+03  -2.045376044978e+04  -1.853584058438e+04 
  3.850000000000e-13  8.478781034562e+01  0.000000000000e+00 1.933301703225e+03  -2.048452624613e+04  -1.855122454290e+04 
  3.900000000000e-13  8.548217663817e+01  0.000000000000e+00 1.949134398168e+03  -2.051619483877e+04  -1.856706044060e+04 
  3.950000000000e-13  8.619501797032e+01  0.000000000000e+00 1.965388354438e+03  -2.054870741361e+04  -1.858331905917e+04 
  4.000000000000e-13  8.692453509061e+01  0.000000000000e+00 1.982022546139e+03  -2.058198221880e+04  -1.859995967267e+04 
  4.050000000000e-13  8.766833769822e+01  0.000000000000e+00 1.998982470476e+03  -2.061591038681e+04  -1.861692791633e+04 
  4.100000000000e-13  8.842340775584e+01  0.000000000000e+00 2.016199311228e+03  -2.065035421887e+04  -1.863415490764e+04 
  4.150000000000e-13  8.918612896362e+01  0.000000000000e+00 2.033590610804e+03  -2.068514854291e+04  -1.865155793210e+04 
  4.200000000000e-13  8.995237821393e+01  0.000000000000e+00 2.051062355559e+03  -2.072010494568e+04  -1.866904259012e+04 
  4.250000000000e-13  9.071766009353e+01  0.000000000000e+00 2.068512042669e+03  -2.075501798920e+04  -1.868650594653e+04 
  4.300000000000e-13  9.147725860935e+01  0.000000000000e+00 2.085832139726e+03  -2.078967220356e+04  -1.870384006384e+04 
  4.350000000000e-13  9.222638260557e+01  0.000000000000e+00 2.102913400486e+03  -2.082384876192e+04  -1.872093536144e+04 
  4.400000000000e-13  9.296029019276e+01  0.000000000000e+00 2.119647702062e+03  -2.085733116266e+04  -1.873768346059e+04 
  4.450000000000e-13  9.367438849647e+01  0.000000000000e+00 2.135930319354e+03  -2.088990975668e+04  -1.875397943732e+04 
  4.500000000000e-13  9.436431426781e+01  0.000000000000e+00 2.151661763100e+03  -2.092138538594e+04  -1.876972362284e+04 
  4.550000000000e-13  9.502600622235e+01  0.000000000000e+00 2.166749429328e+03  -2.095157264271e+04  -1.878482321338e+04 
  4.600000000000e-13  9.565578087000e+01  0.000000000000e+00 2.181109328399e+03  -2.098030329839e+04  -1.879919396999e+04 
  4.650000000000e-13  9.625042055324e+01  8.046784079271e+07 2.194668092420e+03  -2.100743030861e+04  -1.881276221619e+04 
  4.700000000000e-13  9.680826945409e+01  0.000000000000e+00 2.207387966017e+03  -2.103287784586e+04  -1.882548987984e+04 
  4.750000000000e-13  9.732621046052e+01  0.000000000000e+00 2.219197873902e+03  -2.105650336802e+04  -1.883730549412e+04 
  4.800000000000e-13  9.780305791593e+01  0.000000000000e+00 2.230070781151e+03  -2.107825250642e+04  -1.884818172527e+04 
  4.850000000000e-13  9.823850516607e+01  0.000000000000e+00 2.239999695542e+03  -2.109811110583e+04  -1.885811141029e+04 
  4.900000000000e-13  9.863316824985e+01  0.000000000000e+00 2.248998663778e+03  -2.111610728122e+04  -1.886710861744e+04 
  4.950000000000e-13  9.898856603435e+01  9.497299872779e+07 2.257102318528e+03  -2.113231055189e+04  -1.887520823336e+04 
  5.000000000000e-13  9.930766186928e+01  0.000000000000e+00 2.264378229047e+03  -2.114685655145e+04  -1.888247832240e+04 
  5.050000000000e-13  9.959277113761e+01  0.000000000000e+00 2.270879189879e+03  -2.115985152870e+04  -1.888897233882e+04 
  5.100000000000e-13  9.984726943773e+01  0.000000000000e+00 2.276682170226e+03  -2.117145018946e+04  -1.889476801923e+04 
  5.150000000000e-13  1.000746852201e+02  0.000000000000e+00 2.281867624570e+03  -2.118181419238e+04  -1.889994656781e+04 
  5.200000000000e-13  1.002784474352e+02  0.000000000000e+00 2.286513738627e+03  -2.119110053408e+04  -1.890458679546e+04 
  5.250000000000e-13  1.004616727053e+02  0.000000000000e+00 2.290691576516e+03  -2.119945177294e+04  -1.890876019643e+04 
  5.300000000000e-13  1.006270145906e+02  0.000000000000e+00 2.294461643783e+03  -2.120698913804e+04  -1.891252749426e+04 
  5.350000000000e-13  1.007765811913e+02  0.000000000000e+00 2.297872008585e+03  -2.121380880494e+04  -1.891593679635e+04 
  5.400000000000e-13  1.009119118692e+02  0.000000000000e+00 2.300957770900e+03  -2.121998089584e+04  -1.891902312494e+04 
  5.450000000000e-13  1.010339948922e+02  0.000000000000e+00 2.303741464870e+03  -2.122555034458e+04  -1.892180887971e+04 
  5.500000000000e-13  1.011433077824e+02  0.000000000000e+00 2.306233978782e+03  -2.123053877091e+04  -1.892430479213e+04 
  5.550000000000e-13  1.012398694790e+02  0.000000000000e+00 2.308435744481e+03  -2.123494685876e+04  -1.892651111428e+04 
  5.600000000000e-13  1.013233035961e+02  0.000000000000e+00 2.310338179748e+03  -2.123875721386e+04  -1.892841903411e+04 
  5.650000000000e-13  1.013929198926e+02  0.000000000000e+00 2.311925545951e+03  -2.124193804519e+04  -1.893001249924e+04 
  5.700000000000e-13  1.014478230307e+02  5.372544542243e+07 2.313177427915e+03  -2.124444810647e+04  -1.893127067856e+04 
  5.750000000000e-13  1.014881427544e+02  0.000000000000e+00 2.314096784013e+03  -2.124629281301e+04  -1.893219602900e+04 
  5.800000000000e-13  1.015119196972e+02  0.000000000000e+00 2.314638937465e+03  -2.124738226385e+04  -1.893274332638e+04 
  5.850000000000e-13  1.015185755789e+02  0.000000000000e+00 2.314790702527e+03  -2.124768957455e+04  -1.893289887202e+04 
  5.900000000000e-13  1.015079766547e+02  0.000000000000e+00 2.314549029601e+03  -2.124720824744e+04  -1.893265921784e+04 
  5.950000000000e-13  1.014805605820e+02  7.738190300105e+07 2.313923897995e+03  -2.124595802466e+04  -1.893203412667e+04 
  6.000000000000e-13  1.014393340883e+02  0.000000000000e+00 2.312983866048e+03  -2.124407622106e+04  -1.893109235501e+04 
  6.050000000000e-13  1.013837326046e+02  0.000000000000e+00 2.311716060655e+03  -2.124153713283e+04  -1.892982107218e+04 
  6.100000000000e-13  1.013159719694e+02  0.000000000000e+00 2.310171006587e+03  -2.123844219065e+04  -1.892827118406e+04 
  6.150000000000e-13  1.012386980404e+02  0.000000000000e+00 2.308409033751e+03  -2.123491253099e+04  -1.892650349724e+04 
  6.200000000000e-13  1.011548275178e+02  0.000000000000e+00 2.306496647719e+03  -2.123108165936e+04  -1.892458501164e+04 
  6.250000000000e-13  1.010673810918e+02  6.889250872991e+07 2.304502725201e+03  -2.122708777593e+04  -1.892258505073e+04 
  6.300000000000e-13  1.009823593730e+02  1.695622175748e+08 2.302564089999e+03  -2.122320490429e+04  -1.892064081429e+04 
  6.350000000000e-13  1.009017150408e+02  9.105199164620e+07 2.300725266421e+03  -2.121952250163e+04  -1.891879723521e+04 
  6.400000000000e-13  1.008301343702e+02  1.372917964355e+08 2.299093109253e+03  -2.121625431519e+04  -1.891716120593e+04 
  6.450000000000e-13  1.007693338365e+02  7.679053079178e+07 2.297706756960e+03  -2.121347876245e+04  -1.891577200549e+04 
  6.500000000000e-13  1.007187063297e+02  0.000000000000e+00 2.296552366433e+03  -2.121116819283e+04  -1.891461582639e+04 
  6.550000000000e-13  1.006778802146e+02  1.741201875065e+08 2.295621463776e+03  -2.120930567543e+04  -1.891368421165e+04 
  6.600000000000e-13  1.006533563396e+02  5.595200133697e+07 2.295062279040e+03  -2.120818773095e+04  -1.891312545191e+04 
  6.650000000000e-13  1.006409582267e+02  0.000000000000e+00 2.294779581650e+03  -2.120762387005e+04  -1.891284428840e+04 
  6.700000000000e-13  1.006394468198e+02  0.000000000000e+00 2.294745119084e+03  -2.120755743172e+04  -1.891281231263e+04 
  6.750000000000e-13  1.006484483145e+02  1.843337148895e+08 2.294950367986e+03  -2.120797123464e+04  -1.891302086665e+04 
  6.800000000000e-13  1.006725293466e+02  5.429396088431e+07 2.295499455175e+03  -2.120907353080e+04  -1.891357407563e+04 
  6.850000000000e-13  1.007077231857e+02  0.000000000000e+00 2.296301932661e+03  -2.121068311752e+04  -1.891438118486e+04 
  6.900000000000e-13  1.007502174355e+02  1.383031348553e+08 2.297270871537e+03  -2.121262595784e+04  -1.891535508630e+04 
  6.950000000000e-13  1.008010280784e+02  0.000000000000e+00 2.298429437868e+03  -2.121494852127e+04  -1.891651908340e+04 
  7.000000000000e-13  1.008556207215e+02  0.000000000000e+00 2.299674240035e+03  -2.121744369422e+04  -1.891776945419e+04 
  7.050000000000e-13  1.009123222559e+02  0.000000000000e+00 2.300967128394e+03  -2.122003513161e+04  -1.891906800321e+04 
  7.100000000000e-13  1.009694092158e+02  9.353452590597e+07 2.302268805089e+03  -2.122264421848e+04  -1.892037541339e+04 
  7.150000000000e-13  1.010275965223e+02  4.407279352680e+07 2.303595571499e+03  -2.122530367237e+04  -1.892170810087e+04 
  7.200000000000e-13  1.010839133847e+02  1.364218537147e+08 2.304879688705e+03  -2.122787790251e+04  -1.892299821380e+04 
  7.250000000000e-13  1.011380797814e+02  0.000000000000e+00 2.306114771749e+03  -2.123035413460e+04  -1.892423936286e+04 
  7.300000000000e-13  1.011851731689e+02  0.000000000000e+00 2.307188578537e+03  -2.123250785341e+04  -1.892531927487e+04 
  7.350000000000e-13  1.012233809891e+02  1.469890787430e+08 2.308059779759e+03  -2.123425638775e+04  -1.892619660799e+04 
  7.400000000000e-13  1.012533301911e+02  0.000000000000e+00 2.308742670883e+03  -2.123562842889e+04  -1.892688575800e+04 
  7.450000000000e-13  1.012705825671e+02  0.000000000000e+00 2.309136053468e+03  -2.123642144217e+04  -1.892728538870e+04 
  7.500000000000e-13  1.012733964555e+02  5.254328245657e+07 2.309200214757e+03  -2.123655593387e+04  -1.892735571911e+04 
  7.550000000000e-13  1.012607863129e+02  5.047887556357e+07 2.308912682739e+03  -2.123598683250e+04  -1.892707414977e+04 
  7.600000000000e-13  1.012330446441e+02  1.141925228710e+08 2.308280127006e+03  -2.123472728501e+04  -1.892644715801e+04 
  7.650000000000e-13  1.011898723179e+02  1.844622700400e+08 2.307295726873e+03  -2.123276345739e+04  -1.892546773052e+04 
  7.700000000000e-13  1.011325870477e+02  5.776704079904e+07 2.305989528377e+03  -2.123015524873e+04  -1.892416572035e+04 
  7.750000000000e-13  1.010558985099e+02  1.728162472260e+08 2.304240903423e+03  -2.122666109318e+04  -1.892242018976e+04 
  7.800000000000e-13  1.009594679894e+02  1.995819710513e+08 2.302042128756e+03  -2.122226546662e+04  -1.892022333786e+04 
  7.850000000000e-13  1.008448229005e+02  0.000000000000e+00 2.299428031933e+03  -2.121703785408e+04  -1.891760982214e+04 
  7.900000000000e-13  1.007081325713e+02  0.000000000000e+00 2.296311267329e+03  -2.121080345709e+04  -1.891449218976e+04 
  7.950000000000e-13  1.005504855373e+02  8.285258733577e+07 2.292716655341e+03  -2.120361195515e+04  -1.891089529981e+04 
  8.000000000000e-13  1.003764128277e+02  6.466337056570e+07 2.288747510902e+03  -2.119567006139e+04  -1.890692255048e+04 
