  time (s)              T(t) (K)              P(t) (Pa)           Kinetic En. (n.u.)     Potential En. (n.u.) Total En. (n.u.)
  0.00000000000e+00  9.98230461571e+01  0.00000000000e+00 2.27612983953e+03  -2.11709871557e+04  -1.88948573161e+04 
  5.00000000000e-15  9.94300664339e+01  0.00000000000e+00 2.26716925469e+03  -2.11530652870e+04  -1.88858960323e+04 
  1.00000000000e-14  9.87758837950e+01  0.00000000000e+00 2.25225281323e+03  -2.11232298999e+04  -1.88709770867e+04 
  1.50000000000e-14  9.78627419112e+01  0.00000000000e+00 2.23143167453e+03  -2.10815826929e+04  -1.88501510183e+04 
  2.00000000000e-14  9.66942069188e+01  0.00000000000e+00 2.20478715237e+03  -2.10282854104e+04  -1.88234982580e+04 
  2.50000000000e-14  9.52754470818e+01  0.00000000000e+00 2.17243709170e+03  -2.09635725950e+04  -1.87911355033e+04 
  3.00000000000e-14  9.36135931830e+01  0.00000000000e+00 2.13454408609e+03  -2.08877680306e+04  -1.87532239445e+04 
  3.50000000000e-14  9.17181753077e+01  0.00000000000e+00 2.09132543718e+03  -2.08013046865e+04  -1.87099792493e+04 
  4.00000000000e-14  8.96016256258e+01  0.00000000000e+00 2.04306461893e+03  -2.07047476997e+04  -1.86616830807e+04 
  4.50000000000e-14  8.72798272371e+01  0.00000000000e+00 1.99012379216e+03  -2.05988195005e+04  -1.86086957083e+04 
  5.00000000000e-14  8.47726753947e+01  0.00000000000e+00 1.93295660142e+03  -2.04844255590e+04  -1.85514689575e+04 
  5.50000000000e-14  8.21045994006e+01  0.00000000000e+00 1.87212007500e+03  -2.03626784053e+04  -1.84905583303e+04 
  6.00000000000e-14  7.93049726018e+01  0.00000000000e+00 1.80828397360e+03  -2.02349166152e+04  -1.84266326416e+04 
  6.50000000000e-14  7.64083181507e+01  0.00000000000e+00 1.74223548195e+03  -2.01027145244e+04  -1.83604790425e+04 
  7.00000000000e-14  7.34542066383e+01  0.00000000000e+00 1.67487687468e+03  -1.99678778827e+04  -1.82930010080e+04 
  7.50000000000e-14  7.04867479361e+01  0.00000000000e+00 1.60721392950e+03  -1.98324209060e+04  -1.82252069765e+04 
  8.00000000000e-14  6.75536122818e+01  0.00000000000e+00 1.54033360634e+03  -1.96985216717e+04  -1.81581880654e+04 
  8.50000000000e-14  6.47045769764e+01  0.00000000000e+00 1.47537090962e+03  -1.95684556217e+04  -1.80930847121e+04 
  9.00000000000e-14  6.19896752292e+01  0.00000000000e+00 1.41346667893e+03  -1.94445106712e+04  -1.80310439922e+04 
  9.50000000000e-14  5.94571010396e+01  0.00000000000e+00 1.35571981680e+03  -1.93288910291e+04  -1.79731712123e+04 
  1.00000000000e-13  5.71510735005e+01  0.00000000000e+00 1.30313859137e+03  -1.92236191472e+04  -1.79204805558e+04 
  1.05000000000e-13  5.51098704555e+01  0.00000000000e+00 1.25659580052e+03  -1.91304455012e+04  -1.78738497007e+04 
  1.10000000000e-13  5.33642080542e+01  0.00000000000e+00 1.21679182304e+03  -1.90507743263e+04  -1.78339825033e+04 
  1.15000000000e-13  5.19360865476e+01  0.00000000000e+00 1.18422830088e+03  -1.89856108015e+04  -1.78013825006e+04 
  1.20000000000e-13  5.08381624985e+01  0.00000000000e+00 1.15919382452e+03  -1.89355324025e+04  -1.77763385779e+04 
  1.25000000000e-13  5.00736543304e+01  0.00000000000e+00 1.14176177930e+03  -1.89006847083e+04  -1.77589229290e+04 
  1.30000000000e-13  4.96367441842e+01  0.00000000000e+00 1.13179950847e+03  -1.88807999491e+04  -1.77490004406e+04 
  1.35000000000e-13  4.95134038425e+01  0.00000000000e+00 1.12898714557e+03  -1.88752349711e+04  -1.77462478255e+04 
  1.40000000000e-13  4.96825468405e+01  0.00000000000e+00 1.13284388446e+03  -1.88830241198e+04  -1.77501802354e+04 
  1.45000000000e-13  5.01173950924e+01  0.00000000000e+00 1.14275914071e+03  -1.89029419053e+04  -1.77601827646e+04 
  1.50000000000e-13  5.07869477764e+01  0.00000000000e+00 1.15802604451e+03  -1.89335702933e+04  -1.77755442488e+04 
  1.55000000000e-13  5.16574515716e+01  0.00000000000e+00 1.17787496458e+03  -1.89733659952e+04  -1.77954910306e+04 
  1.60000000000e-13  5.26937909698e+01  0.00000000000e+00 1.20150520948e+03  -1.90207240390e+04  -1.78192188295e+04 
  1.65000000000e-13  5.38607406642e+01  0.00000000000e+00 1.22811358423e+03  -1.90740349797e+04  -1.78459213954e+04 
  1.70000000000e-13  5.51240448182e+01  0.00000000000e+00 1.25691899933e+03  -1.91317341550e+04  -1.78748151557e+04 
  1.75000000000e-13  5.64513075664e+01  0.00000000000e+00 1.28718277571e+03  -1.91923422883e+04  -1.79051595126e+04 
  1.80000000000e-13  5.78126940848e+01  0.00000000000e+00 1.31822463024e+03  -1.92544974223e+04  -1.79362727920e+04 
  1.85000000000e-13  5.91814518391e+01  0.00000000000e+00 1.34943456109e+03  -1.93169786363e+04  -1.79675440752e+04 
  1.90000000000e-13  6.05342677212e+01  0.00000000000e+00 1.38028099100e+03  -1.93787222724e+04  -1.79984412814e+04 
  1.95000000000e-13  6.18514795190e+01  0.00000000000e+00 1.41031558916e+03  -1.94388315199e+04  -1.80285159308e+04 
  2.00000000000e-13  6.31171603678e+01  0.00000000000e+00 1.43917519681e+03  -1.94965802143e+04  -1.80574050175e+04 
  2.05000000000e-13  6.43190932287e+01  0.00000000000e+00 1.46658124537e+03  -1.95514116301e+04  -1.80848303847e+04 
  2.10000000000e-13  6.54486497300e+01  0.00000000000e+00 1.49233699373e+03  -1.96029329238e+04  -1.81105959300e+04 
  2.15000000000e-13  6.65005845887e+01  0.00000000000e+00 1.51632284082e+03  -1.96509057363e+04  -1.81345828955e+04 
  2.20000000000e-13  6.74727541093e+01  0.00000000000e+00 1.53848990685e+03  -1.96952333393e+04  -1.81567434324e+04 
  2.25000000000e-13  6.83657657872e+01  0.00000000000e+00 1.55885204370e+03  -1.97359446380e+04  -1.81770925943e+04 
  2.30000000000e-13  6.91825666281e+01  0.00000000000e+00 1.57747644797e+03  -1.97731753708e+04  -1.81956989228e+04 
  2.35000000000e-13  6.99279809655e+01  0.00000000000e+00 1.59447312240e+03  -1.98071469874e+04  -1.82126738650e+04 
  2.40000000000e-13  7.06082142967e+01  0.00000000000e+00 1.60998356255e+03  -1.98381439542e+04  -1.82281603917e+04 
  2.45000000000e-13  7.12303470899e+01  0.00000000000e+00 1.62416921476e+03  -1.98664905780e+04  -1.82423213633e+04 
  2.50000000000e-13  7.18018496955e+01  0.00000000000e+00 1.63720041531e+03  -1.98925287774e+04  -1.82553283621e+04 
  2.55000000000e-13  7.23301535667e+01  0.00000000000e+00 1.64924661357e+03  -1.99165984265e+04  -1.82673518129e+04 
  2.60000000000e-13  7.28223120324e+01  0.00000000000e+00 1.66046863707e+03  -1.99390218115e+04  -1.82785531744e+04 
  2.65000000000e-13  7.32847742631e+01  0.00000000000e+00 1.67101353751e+03  -1.99600932998e+04  -1.82890797623e+04 
  2.70000000000e-13  7.37232798885e+01  0.00000000000e+00 1.68101218789e+03  -1.99800745706e+04  -1.82990623827e+04 
  2.75000000000e-13  7.41428628899e+01  0.00000000000e+00 1.69057937129e+03  -1.99991948803e+04  -1.83086155090e+04 
  2.80000000000e-13  7.45479373434e+01  0.00000000000e+00 1.69981573590e+03  -2.00176550869e+04  -1.83178393510e+04 
  2.85000000000e-13  7.49424288500e+01  0.00000000000e+00 1.70881079189e+03  -2.00356337553e+04  -1.83268229634e+04 
  2.90000000000e-13  7.53299156907e+01  0.00000000000e+00 1.71764612996e+03  -2.00532936816e+04  -1.83356475517e+04 
  2.95000000000e-13  7.57137512541e+01  0.00000000000e+00 1.72639821291e+03  -2.00707875262e+04  -1.83443893133e+04 
  3.00000000000e-13  7.60971504807e+01  0.00000000000e+00 1.73514034665e+03  -2.00882617708e+04  -1.83531214241e+04 
  3.05000000000e-13  7.64832342044e+01  0.00000000000e+00 1.74394369135e+03  -2.01058587292e+04  -1.83619150378e+04 
  3.10000000000e-13  7.68750339272e+01  0.00000000000e+00 1.75287737024e+03  -2.01237167385e+04  -1.83708393682e+04 
  3.15000000000e-13  7.72754649227e+01  0.00000000000e+00 1.76200785636e+03  -2.01419688985e+04  -1.83799610421e+04 
  3.20000000000e-13  7.76872780659e+01  0.00000000000e+00 1.77139787419e+03  -2.01607408412e+04  -1.83893429670e+04 
  3.25000000000e-13  7.81130013251e+01  0.00000000000e+00 1.78110506557e+03  -2.01801480307e+04  -1.83990429652e+04 
  3.30000000000e-13  7.85548812495e+01  0.00000000000e+00 1.79118065553e+03  -2.02002930670e+04  -1.84091124114e+04 
  3.35000000000e-13  7.90148335442e+01  0.00000000000e+00 1.80166832530e+03  -2.02212634095e+04  -1.84195950842e+04 
  3.40000000000e-13  7.94944100707e+01  0.00000000000e+00 1.81260345986e+03  -2.02431298570e+04  -1.84305263971e+04 
  3.45000000000e-13  7.99947873220e+01  0.00000000000e+00 1.82401288520e+03  -2.02659460148e+04  -1.84419331295e+04 
  3.50000000000e-13  8.05167784886e+01  0.00000000000e+00 1.83591514341e+03  -2.02897488494e+04  -1.84538337060e+04 
  3.55000000000e-13  8.10608676653e+01  0.00000000000e+00 1.84832127263e+03  -2.03145602651e+04  -1.84662389925e+04 
  3.60000000000e-13  8.16272607232e+01  0.00000000000e+00 1.86123596708e+03  -2.03403894535e+04  -1.84791534864e+04 
  3.65000000000e-13  8.22159432913e+01  0.00000000000e+00 1.87465889907e+03  -2.03672355781e+04  -1.84925766791e+04 
  3.70000000000e-13  8.28267328609e+01  0.00000000000e+00 1.88858590710e+03  -2.03950901982e+04  -1.85065042911e+04 
  3.75000000000e-13  8.34593102744e+01  0.00000000000e+00 1.90300971384e+03  -2.04239387491e+04  -1.85209290352e+04 
  3.80000000000e-13  8.41132170599e+01  0.00000000000e+00 1.91791986540e+03  -2.04537604497e+04  -1.85358405843e+04 
  3.85000000000e-13  8.47878103456e+01  0.00000000000e+00 1.93330170322e+03  -2.04845262461e+04  -1.85512245429e+04 
  3.90000000000e-13  8.54821766381e+01  0.00000000000e+00 1.94913439816e+03  -2.05161948387e+04  -1.85670604406e+04 
  3.95000000000e-13  8.61950179703e+01  0.00000000000e+00 1.96538835443e+03  -2.05487074136e+04  -1.85833190591e+04 
  4.00000000000e-13  8.69245350906e+01  0.00000000000e+00 1.98202254613e+03  -2.05819822188e+04  -1.85999596726e+04 
  4.05000000000e-13  8.76683376982e+01  0.00000000000e+00 1.99898247047e+03  -2.06159103868e+04  -1.86169279163e+04 
  4.10000000000e-13  8.84234077558e+01  0.00000000000e+00 2.01619931122e+03  -2.06503542188e+04  -1.86341549076e+04 
  4.15000000000e-13  8.91861289636e+01  0.00000000000e+00 2.03359061080e+03  -2.06851485429e+04  -1.86515579321e+04 
  4.20000000000e-13  8.99523782139e+01  0.00000000000e+00 2.05106235555e+03  -2.07201049456e+04  -1.86690425901e+04 
  4.25000000000e-13  9.07176600935e+01  0.00000000000e+00 2.06851204266e+03  -2.07550179892e+04  -1.86865059465e+04 
  4.30000000000e-13  9.14772586093e+01  0.00000000000e+00 2.08583213972e+03  -2.07896722035e+04  -1.87038400638e+04 
  4.35000000000e-13  9.22263826055e+01  0.00000000000e+00 2.10291340048e+03  -2.08238487619e+04  -1.87209353614e+04 
  4.40000000000e-13  9.29602901927e+01  0.00000000000e+00 2.11964770206e+03  -2.08573311626e+04  -1.87376834605e+04 
  4.45000000000e-13  9.36743884964e+01  0.00000000000e+00 2.13593031935e+03  -2.08899097566e+04  -1.87539794373e+04 
  4.50000000000e-13  9.43643142678e+01  0.00000000000e+00 2.15166176310e+03  -2.09213853859e+04  -1.87697236228e+04 
  4.55000000000e-13  9.50260062223e+01  0.00000000000e+00 2.16674942932e+03  -2.09515726427e+04  -1.87848232133e+04 
  4.60000000000e-13  9.56557808700e+01  0.00000000000e+00 2.18110932839e+03  -2.09803032983e+04  -1.87991939699e+04 
  4.65000000000e-13  9.62504205532e+01  8.04678407927e+07 2.19466809242e+03  -2.10074303086e+04  -1.88127622161e+04 
  4.70000000000e-13  9.68082694540e+01  0.00000000000e+00 2.20738796601e+03  -2.10328778458e+04  -1.88254898798e+04 
  4.75000000000e-13  9.73262104605e+01  0.00000000000e+00 2.21919787390e+03  -2.10565033680e+04  -1.88373054941e+04 
  4.80000000000e-13  9.78030579159e+01  0.00000000000e+00 2.23007078115e+03  -2.10782525064e+04  -1.88481817252e+04 
  4.85000000000e-13  9.82385051660e+01  0.00000000000e+00 2.23999969554e+03  -2.10981111058e+04  -1.88581114102e+04 
  4.90000000000e-13  9.86331682498e+01  0.00000000000e+00 2.24899866377e+03  -2.11161072812e+04  -1.88671086174e+04 
  4.95000000000e-13  9.89885660343e+01  9.49729987277e+07 2.25710231852e+03  -2.11323105518e+04  -1.88752082333e+04 
  5.00000000000e-13  9.93076618692e+01  0.00000000000e+00 2.26437822904e+03  -2.11468565514e+04  -1.88824783224e+04 
  5.05000000000e-13  9.95927711376e+01  0.00000000000e+00 2.27087918987e+03  -2.11598515287e+04  -1.88889723388e+04 
  5.10000000000e-13  9.98472694377e+01  0.00000000000e+00 2.27668217022e+03  -2.11714501894e+04  -1.88947680192e+04 
  5.15000000000e-13  1.00074685220e+02  0.00000000000e+00 2.28186762457e+03  -2.11818141923e+04  -1.88999465678e+04 
  5.20000000000e-13  1.00278447435e+02  0.00000000000e+00 2.28651373862e+03  -2.11911005340e+04  -1.89045867954e+04 
  5.25000000000e-13  1.00461672705e+02  0.00000000000e+00 2.29069157651e+03  -2.11994517729e+04  -1.89087601964e+04 
  5.30000000000e-13  1.00627014590e+02  0.00000000000e+00 2.29446164378e+03  -2.12069891380e+04  -1.89125274942e+04 
  5.35000000000e-13  1.00776581191e+02  0.00000000000e+00 2.29787200858e+03  -2.12138088049e+04  -1.89159367963e+04 
  5.40000000000e-13  1.00911911869e+02  0.00000000000e+00 2.30095777090e+03  -2.12199808958e+04  -1.89190231249e+04 
  5.45000000000e-13  1.01033994892e+02  0.00000000000e+00 2.30374146487e+03  -2.12255503445e+04  -1.89218088797e+04 
  5.50000000000e-13  1.01143307782e+02  0.00000000000e+00 2.30623397878e+03  -2.12305387709e+04  -1.89243047921e+04 
  5.55000000000e-13  1.01239869479e+02  0.00000000000e+00 2.30843574448e+03  -2.12349468587e+04  -1.89265111142e+04 
  5.60000000000e-13  1.01323303596e+02  0.00000000000e+00 2.31033817974e+03  -2.12387572138e+04  -1.89284190341e+04 
  5.65000000000e-13  1.01392919892e+02  0.00000000000e+00 2.31192554595e+03  -2.12419380451e+04  -1.89300124992e+04 
  5.70000000000e-13  1.01447823030e+02  5.37254454224e+07 2.31317742791e+03  -2.12444481064e+04  -1.89312706785e+04 
  5.75000000000e-13  1.01488142754e+02  0.00000000000e+00 2.31409678401e+03  -2.12462928130e+04  -1.89321960290e+04 
  5.80000000000e-13  1.01511919697e+02  0.00000000000e+00 2.31463893746e+03  -2.12473822638e+04  -1.89327433263e+04 
  5.85000000000e-13  1.01518575578e+02  0.00000000000e+00 2.31479070252e+03  -2.12476895745e+04  -1.89328988720e+04 
  5.90000000000e-13  1.01507976654e+02  0.00000000000e+00 2.31454902960e+03  -2.12472082474e+04  -1.89326592178e+04 
  5.95000000000e-13  1.01480560582e+02  7.73819030010e+07 2.31392389799e+03  -2.12459580246e+04  -1.89320341266e+04 
  6.00000000000e-13  1.01439334088e+02  0.00000000000e+00 2.31298386604e+03  -2.12440762210e+04  -1.89310923550e+04 
  6.05000000000e-13  1.01383732604e+02  0.00000000000e+00 2.31171606065e+03  -2.12415371328e+04  -1.89298210721e+04 
  6.10000000000e-13  1.01315971969e+02  0.00000000000e+00 2.31017100658e+03  -2.12384421906e+04  -1.89282711840e+04 
  6.15000000000e-13  1.01238698040e+02  0.00000000000e+00 2.30840903375e+03  -2.12349125309e+04  -1.89265034972e+04 
  6.20000000000e-13  1.01154827517e+02  0.00000000000e+00 2.30649664771e+03  -2.12310816593e+04  -1.89245850116e+04 
  6.25000000000e-13  1.01067381091e+02  6.88925087299e+07 2.30450272520e+03  -2.12270877759e+04  -1.89225850507e+04 
  6.30000000000e-13  1.00982359373e+02  1.69562217574e+08 2.30256408999e+03  -2.12232049042e+04  -1.89206408142e+04 
  6.35000000000e-13  1.00901715040e+02  9.10519916462e+07 2.30072526642e+03  -2.12195225016e+04  -1.89187972352e+04 
  6.40000000000e-13  1.00830134370e+02  1.37291796435e+08 2.29909310925e+03  -2.12162543151e+04  -1.89171612059e+04 
  6.45000000000e-13  1.00769333836e+02  7.67905307917e+07 2.29770675696e+03  -2.12134787624e+04  -1.89157720054e+04 
  6.50000000000e-13  1.00718706329e+02  0.00000000000e+00 2.29655236643e+03  -2.12111681928e+04  -1.89146158263e+04 
  6.55000000000e-13  1.00677880214e+02  1.74120187506e+08 2.29562146377e+03  -2.12093056754e+04  -1.89136842116e+04 
  6.60000000000e-13  1.00653356339e+02  5.59520013369e+07 2.29506227904e+03  -2.12081877309e+04  -1.89131254519e+04 
  6.65000000000e-13  1.00640958226e+02  0.00000000000e+00 2.29477958165e+03  -2.12076238700e+04  -1.89128442884e+04 
  6.70000000000e-13  1.00639446819e+02  0.00000000000e+00 2.29474511908e+03  -2.12075574317e+04  -1.89128123126e+04 
  6.75000000000e-13  1.00648448314e+02  1.84333714889e+08 2.29495036798e+03  -2.12079712346e+04  -1.89130208666e+04 
  6.80000000000e-13  1.00672529346e+02  5.42939608843e+07 2.29549945517e+03  -2.12090735308e+04  -1.89135740756e+04 
  6.85000000000e-13  1.00707723185e+02  0.00000000000e+00 2.29630193266e+03  -2.12106831175e+04  -1.89143811848e+04 
  6.90000000000e-13  1.00750217435e+02  1.38303134855e+08 2.29727087153e+03  -2.12126259578e+04  -1.89153550863e+04 
  6.95000000000e-13  1.00801028078e+02  0.00000000000e+00 2.29842943786e+03  -2.12149485212e+04  -1.89165190834e+04 
  7.00000000000e-13  1.00855620721e+02  0.00000000000e+00 2.29967424003e+03  -2.12174436942e+04  -1.89177694541e+04 
  7.05000000000e-13  1.00912322255e+02  0.00000000000e+00 2.30096712839e+03  -2.12200351316e+04  -1.89190680032e+04 
  7.10000000000e-13  1.00969409215e+02  9.35345259059e+07 2.30226880508e+03  -2.12226442184e+04  -1.89203754133e+04 
  7.15000000000e-13  1.01027596522e+02  4.40727935268e+07 2.30359557149e+03  -2.12253036723e+04  -1.89217081008e+04 
  7.20000000000e-13  1.01083913384e+02  1.36421853714e+08 2.30487968870e+03  -2.12278779025e+04  -1.89229982138e+04 
  7.25000000000e-13  1.01138079781e+02  0.00000000000e+00 2.30611477174e+03  -2.12303541346e+04  -1.89242393628e+04 
  7.30000000000e-13  1.01185173168e+02  0.00000000000e+00 2.30718857853e+03  -2.12325078534e+04  -1.89253192748e+04 
  7.35000000000e-13  1.01223380989e+02  1.46989078743e+08 2.30805977975e+03  -2.12342563877e+04  -1.89261966079e+04 
  7.40000000000e-13  1.01253330191e+02  0.00000000000e+00 2.30874267088e+03  -2.12356284288e+04  -1.89268857580e+04 
  7.45000000000e-13  1.01270582567e+02  0.00000000000e+00 2.30913605346e+03  -2.12364214421e+04  -1.89272853887e+04 
  7.50000000000e-13  1.01273396455e+02  5.25432824565e+07 2.30920021475e+03  -2.12365559338e+04  -1.89273557191e+04 
  7.55000000000e-13  1.01260786312e+02  5.04788755635e+07 2.30891268273e+03  -2.12359868325e+04  -1.89270741497e+04 
  7.60000000000e-13  1.01233044644e+02  1.14192522871e+08 2.30828012700e+03  -2.12347272850e+04  -1.89264471580e+04 
  7.65000000000e-13  1.01189872317e+02  1.84462270040e+08 2.30729572687e+03  -2.12327634573e+04  -1.89254677305e+04 
  7.70000000000e-13  1.01132587047e+02  5.77670407990e+07 2.30598952837e+03  -2.12301552487e+04  -1.89241657203e+04 
  7.75000000000e-13  1.01055898509e+02  1.72816247226e+08 2.30424090342e+03  -2.12266610931e+04  -1.89224201897e+04 
  7.80000000000e-13  1.00959467989e+02  1.99581971051e+08 2.30204212875e+03  -2.12222654666e+04  -1.89202233378e+04 
  7.85000000000e-13  1.00844822900e+02  0.00000000000e+00 2.29942803193e+03  -2.12170378540e+04  -1.89176098221e+04 
  7.90000000000e-13  1.00708132571e+02  0.00000000000e+00 2.29631126732e+03  -2.12108034570e+04  -1.89144921897e+04 
  7.95000000000e-13  1.00550485537e+02  8.28525873357e+07 2.29271665534e+03  -2.12036119551e+04  -1.89108952998e+04 
  8.00000000000e-13  1.00376412827e+02  6.46633705657e+07 2.28874751090e+03  -2.11956700613e+04  -1.89069225504e+04 
  8.05000000000e-13  1.00186766131e+02  6.28180960254e+07 2.28442325393e+03  -2.11870167833e+04  -1.89025935293e+04 
  8.10000000000e-13  9.99846618036e+01  4.06737451370e+07 2.27981494242e+03  -2.11777944403e+04  -1.88979794978e+04 
  8.15000000000e-13  9.97716087461e+01  1.45899561290e+08 2.27495698186e+03  -2.11680720420e+04  -1.88931150601e+04 
  8.20000000000e-13  9.95363654887e+01  5.25751899636e+07 2.26959304819e+03  -2.11573359233e+04  -1.88877428751e+04 
  8.25000000000e-13  9.92963476752e+01  2.67850774103e+07 2.26412024679e+03  -2.11463817772e+04  -1.88822615304e+04 
  8.30000000000e-13  9.90539583719e+01  4.43946501358e+07 2.25859337151e+03  -2.11353195722e+04  -1.88767262007e+04 
  8.35000000000e-13  9.88143878735e+01  4.89205968575e+07 2.25313076962e+03  -2.11243863181e+04  -1.88712555485e+04 
  8.40000000000e-13  9.85804259592e+01  9.98413315092e+07 2.24779605269e+03  -2.11137094260e+04  -1.88659133733e+04 
